Fiber 1: Spring Idx,x (mm),y (mm),z (mm)
0,1.3471114790620886e-15,-11.0,0.0
1,-1.6340972318267974,-10.874237726196093,0.04747792220740247
2,-3.2308290526495744,-10.507159954866967,0.09495584441480494
3,-4.7547738659675325,-9.907076555203085,0.14243376662220741
4,-6.172149550057584,-9.087464493918434,0.18991168882960988
5,-7.4515623225235625,-8.066665201075162,0.23738961103701234
6,-8.564702083826031,-6.867474146365974,0.28486753324441483
7,-9.486968838673285,-5.516631809317546,0.33234545545181726
8,-10.198016334540796,-4.044227409855689,0.37982337765921975
9,-10.682200903663178,-2.483028694849731,0.42730129986662224
10,-10.928925607398462,-0.8677527089696516,0.4747792220740247
11,-10.932872112820933,0.7657062216049655,0.5222571442814271
12,-10.69411522886058,2.3810741250339986,0.5697350664888297
13,-10.21811763771704,3.942502914343363,0.6172129886962321
14,-9.515605018650504,5.41536592433631,0.6646909109036345
15,-8.602324416470765,6.767025800426933,0.7121688331110371
16,-7.49869129716424,7.967557710549276,0.7596467553184395
17,-6.229333200657844,8.990411854545528,0.8071246775258419
18,-4.82254019101775,9.81300060379515,0.8546025997332445
19,-3.3096343666924706,10.417197286918979,0.9020805219406469
20,-1.7242724821003659,10.789735607594732,0.9495584441480494
21,-0.1016972074047598,10.922500893920692,0.9970363663554519
22,1.522046316833698,10.8127067860594,1.0445142885628542
23,3.1109112141394406,10.462953516509431,1.0919922107702569
24,4.629649107609915,9.881166568636504,1.1394701329776593
25,6.044592091297492,9.08041715557264,1.1869480551850617
26,7.324399089774457,8.07862858427036,1.2344259773924642
27,8.440750060422134,6.898175100174792,1.2819038995998666
28,9.368972662019475,5.565382190528514,1.329381821807269
29,10.088587522822717,4.109939505956546,1.3768597440146717
30,10.583760057782397,2.5642394923927294,1.4243376662220741
31,10.843648867303788,0.9626564658702096,1.4718155884294766
32,10.862643052603234,-0.6592178250159365,1.519293510636879
33,10.640483253977392,-2.2653651489696127,1.5667714328442814
34,10.182263803206734,-3.8201406770327857,1.6142493550516839
35,9.498316022395526,-5.289064039129987,1.6617272772590863
36,8.60397534013506,-6.639583996410026,1.709205199466489
37,7.519237473388561,-7.841799771249715,1.7566831216738914
38,6.26831138275153,-8.86912305043857,1.8041610438812938
39,4.8790789952244,-9.698866004925902,1.8516389660886963
40,3.3824737516973444,-10.312742321867816,1.8991168882960987
41,1.811791830340499,-10.697270184655437,1.9465948105035011
42,0.20195138236902244,-10.844068320876232,1.9940727327109038
43,-1.4112837395544764,-10.750038618099499,2.0415506549183062
44,-2.992098502870401,-10.417431330015818,2.0890285771257084
45,-4.505421815720067,-9.85379150469731,2.136506499333111
46,-5.917704594318268,-9.071787904595007,2.1839844215405138
47,-7.19766351535401,-8.088928295769337,2.231462343747916
48,-8.316973965157912,-6.927167503882788,2.2789402659553186
49,-9.250896836387206,-5.612417010782193,2.326418188162721
50,-9.97882530198502,-4.17396704540362,2.3738961103701235
51,-10.484739482103695,-2.643834057982319,2.4213740325775257
52,-10.757558972686404,-1.0560481143436748,2.4688519547849284
53,-10.791385478715572,0.5541039289955471,2.516329876992331
54,-10.58563024012185,2.150862637252844,2.5638077991997332
55,-10.145023499603862,3.69879016906507,2.611285721407136
56,-9.479505882198204,5.163556769887887,2.658763643614538
57,-8.604004178139794,6.512702131992565,2.7062415658219408
58,-7.5380965851607,7.716354735763651,2.7537194880293434
59,-6.305574916992623,8.747893231299564,2.8011974102367456
60,-4.933913567136094,9.584535216876567,2.8486753324441483
61,-3.453657080383006,10.207840392607752,2.8961532546515505
62,-1.897739983467612,10.604116977387765,2.943631176858953
63,-0.30075402081690616,10.764722432366865,2.9911090990663554
64,1.3018209012997661,10.68625188673127,3.038587021273758
65,2.874404964324541,10.37061015911829,3.0860649434811607
66,4.382108368298986,9.824965855017576,3.133542865688563
67,5.791505406313207,9.061588639509194,3.1810207878959655
68,7.071375508707135,8.097573377498835,3.2284987101033678
69,8.19339482820104,6.954457342685834,3.2759766323107704
70,9.132763046341614,5.657739066193918,3.3234545545181726
71,9.868751530208824,4.236309573593022,3.3709324767255753
72,10.3851607238463,2.721808696726129,3.418410398932978
73,10.670676682171917,1.1479208014706526,3.46588832114038
74,10.719118901091944,-0.45037439222983416,3.513366243347783
75,10.529574016169704,-2.0375792354598126,3.560844165555185
76,10.106412479672453,-3.57846654227311,3.6083220877625877
77,9.459187925724144,-5.03886143853743,3.6558000099699903
78,8.60242153786351,-6.386399314963679,3.7032779321773925
79,7.55527628471967,-7.591243073961237,3.750755854384795
80,6.341128331163941,-8.626743775150107,3.7982337765921974
81,4.987045210044901,-9.470030051807766,3.8457116987996
82,3.5231824030084162,-10.102513261853337,3.8931896210070023
83,1.9821117822823529,-10.510297216623737,3.940667543214405
84,0.39809686880885903,-10.684483456748858,3.9881454654218076
85,-1.193668967438693,-10.621365369516168,4.03562338762921
86,-2.7578444274685507,-10.322506914474603,4.0831013098366125
87,-4.259724951058509,-9.794704288673575,4.130579232044015
88,-5.666012710675299,-9.049831462864727,4.178057154251417
89,-6.945554847597858,-8.10457309746685,4.2255350764588195
90,-8.070033583075762,-6.980050844901482,4.273012998666222
91,-9.01459291698268,-5.701351407648619,4.320490920873625
92,-9.758388044704684,-4.29696689668776,4.3679688430810275
93,-10.28504534821592,-2.79815997471304,4.415446765288429
94,-10.583022810928103,-1.2382679297395878,4.462924687495832
95,-10.64586292350778,0.34803882923379,4.510402609703235
96,-10.472332540053946,1.925527361646404,4.557880531910637
97,-10.066446657585317,3.4591847426647395,4.60535845411804
98,-9.437375670817742,4.914995187439119,4.652836376325442
99,-8.59923824141435,6.260694503783933,4.700314298532844
100,-7.570784458821437,7.466485139932034,4.747792220740247
101,-6.374976402150665,8.505695980344512,4.79527014294765
102,-5.038475485405696,9.355372280090451,4.842748065155051
103,-3.5910480313302062,9.996782689331333,4.890225987362454
104,-2.0649023266186983,10.415832169073182,4.937703909569857
105,-0.4939719232301946,10.603371696323721,4.985181831777259
106,1.0868388662856703,10.555397954386041,5.032659753984662
107,2.6424305032405577,10.273138651088152,5.080137676192064
108,4.138287555541903,9.763021649859201,5.1276155983994665
109,5.541244524793204,9.0365286792153,5.175093520606869
110,6.82022117562948,8.109936948090848,5.222571442814272
111,7.946911063962259,7.003954480684074,5.270049365021674
112,8.896408011083825,5.743257339931232,5.317527287229076
113,9.647756658753778,4.355939081182894,5.365005209436479
114,10.184414935414313,2.872884719022315,5.4124831316438815
115,10.494618227709042,1.3270831575001973,5.459961053851284
116,10.57163724072426,-0.24710660946404073,5.507438976058687
117,10.413923896072655,-1.8147192050465688,5.554916898266089
118,10.02514210645515,-3.340959508735601,5.602394820473491
119,9.4140828233113,-4.791974977351464,5.649872742680894
120,8.59446532376567,-6.135606505247654,5.697350664888297
121,7.584629227242493,-7.342101169396329,5.744828587095698
122,6.407124154845097,-8.384771062787612,5.792306509303101
123,5.088206212166221,-9.240583627391985,5.839784431510504
124,3.657252538372837,-9.890670428799694,5.887262353717906
125,2.146106975559484,-10.32074313434171,5.934740275925309
126,0.5883714324472232,-10.52140752442133,5.982218198132711
127,-0.9813412880184224,-10.488368636856114,6.029696120340113
128,-2.528176583066356,-10.222522565712545,6.077174042547516
129,-4.017811977270871,-9.729932955539851,6.124651964754919
130,-5.417218697870318,-9.021692793074045,6.172129886962321
131,-6.695393999784252,-8.113674644499556,6.219607809169723
132,-7.824048003011541,-7.026174960710761,6.267085731377126
133,-8.77822982624145,-5.7834604208261275,6.314563653584528
134,-9.536879158755479,-4.413226453438133,6.362041575791931
135,-10.083291077650136,-2.9459800177002187,6.409519497999334
136,-10.405483851895728,-1.414360399384121,6.4569974202067355
137,-10.4964616356243,0.14758685646323555,6.504475342414138
138,-10.354366292183835,1.7051667248011593,6.551953264621541
139,-9.982515055848179,3.2238053698104396,6.5994311868289435
140,-9.389323274812726,4.669817585421329,6.646909109036345
141,-8.58811403086693,6.0111539721668015,6.694387031243748
142,-7.596818941255545,7.218111277134395,6.7418649534511506
143,-6.437576861021,8.26399015316621,6.789342875658553
144,-5.136239466065177,9.12568577177117,6.836820797865956
145,-3.7217947581662276,9.784198225070547,6.884298720073358
146,-2.2257213476189808,10.225051441947816,6.93177664228076
147,-0.6812878969305505,10.438611382477289,6.979254564488163
148,0.8771866836274717,10.420296517227397,7.026732486695566
149,2.4150958374048237,10.170675994241229,7.074210408902968
150,3.898313813919677,9.695453393086977,7.12168833111037
151,5.293952908767944,9.005336506845472,7.169166253317773
152,6.571092687983455,8.115796122808174,7.216644175525175
153,7.70146502767642,7.0467192348383,7.264122097732578
154,8.660079792036106,5.82196446018523,7.311600019939981
155,9.425777301281459,4.468829599178292,7.359077942147382
156,9.981695376151704,3.01744321970325,7.406555864354785
157,10.315640650533592,1.500093826692387,7.454033786562188
158,10.420355976340524,-0.04948844703701345,7.50151170876959
159,10.293678057287616,-1.596881648717012,7.548989630976992
160,9.938581889280913,-3.107736644412268,7.596467553184395
161,9.363111100472167,-4.548539603199664,7.6439454753917975
162,8.580195817729686,-5.887355401077305,7.6914233975992
163,7.607362182077713,-7.094535454433713,7.738901319806603
164,6.466340038178139,-8.14337429419429,7.7863792420140046
165,5.182577578898844,-9.010700340782371,7.833857164221407
166,3.7846737854501455,-9.677387811037718,7.88133508642881
167,2.3037413208921103,-10.128778448339533,7.9288130086362125
168,0.7727140698460204,-10.355003777104914,7.976290930843615
169,-0.7743852638967864,-10.351200797778983,8.023768853051017
170,-2.303201214323184,-10.117616409082252,8.07124677525842
171,-3.7798084635163374,-9.65959831789365,8.118724697465822
172,-5.1714646638723485,-8.987472718734686,8.166202619673225
173,-6.447336466667358,-8.116311538367826,8.213680541880628
174,-7.579182658058351,-7.065594490731381,8.26115846408803
175,-8.54197926720511,-5.8587735189656,8.308636386295433
176,-9.314472810137032,-4.522749362961056,8.356114308502834
177,-9.879649438181852,-3.0872719348084137,8.403592230710236
178,-10.2251096353672,-1.584277867750239,8.451070152917639
179,-10.343340213375619,-0.0471799895374476,8.498548075125042
180,-10.231877638496057,1.4898754720571825,8.546025997332444
181,-9.893359141699936,2.992767438660534,8.593503919539847
182,-9.335460556727888,4.428157434682865,8.64098184174725
183,-8.57072234648951,5.764229129967272,8.688459763954652
184,-7.6162677592911505,6.971393566554862,8.735937686162055
185,-6.493419448356953,8.022944437872313,8.783415608369456
186,-5.227223137755666,8.895648908589438,8.830893530576859
187,-3.845888975346447,9.57026090470887,8.878371452784261
188,-2.380163033171086,10.031945533910848,8.925849374991664
189,-0.8626429576130065,10.270605277162103,8.973327297199067
190,0.672946998416461,10.2811007799504,9.02080521940647
191,2.1925054381020317,10.063361416518656,9.068283141613872
192,3.6623111226709324,9.6223832509715,9.115761063821274
193,5.049771294985733,8.968114520634238,9.163238986028677
194,6.324144418396053,8.115231263988898,9.21071690823608
195,7.457221304271169,7.082808152461925,9.25819483044348
196,8.423949536827434,5.893891908235983,9.305672752650883
197,9.202987373429684,4.574986847612801,9.353150674858286
198,9.777174874055302,3.155464033490699,9.400628597065689
199,10.13391185987256,1.6669072082287968,9.448106519273091
200,10.26543437671538,0.14241007227001512,9.495584441480494
201,10.16898359839103,-1.3841594563614361,9.543062363687897
202,9.846863496945392,-2.8789116446976086,9.5905402858953
203,9.306386079031514,-4.308687294380258,9.638018208102702
204,8.559705484443555,-5.6417933360280434,9.685496130310103
205,7.623544709236412,-6.848705350216115,9.732974052517505
206,6.518821096923318,-7.902721442761248,9.780451974724908
207,5.2701789842196165,-8.780552993089348,9.82792989693231
208,3.90543994299807,-9.462839206242956,9.875407819139713
209,2.45498288202852,-9.934574100018457,9.922885741347116
210,0.9510678204296272,-10.185436510813595,9.970363663554519
211,-0.5728816146265439,-10.210015861514556,10.017841585761921
212,-2.0830210078698363,-10.007928754054817,10.065319507969324
213,-3.545836784831385,-9.583823876529294,10.112797430176727
214,-4.928889957241868,-8.947275195988583,10.160275352384128
215,-6.201535479471104,-8.112565888138786,10.20775327459153
216,-7.335601263821385,-7.098367879080199,10.255231196798933
217,-8.30601180952107,-5.927324188152628,10.302709119006336
218,-9.09134264064528,-4.625543413632459,10.350187041213738
219,-9.674293294158844,-3.2220176467675827,10.39766496342114
220,-10.04206841628732,-1.7479767914339597,10.445142885628544
221,-10.186658572934824,-0.23619366918466098,10.492620807835946
222,-10.105014612270375,1.2797446282980944,10.540098730043349
223,-9.799111785198368,2.7661829391441133,10.58757665225075
224,-9.275902279553229,4.190145205407381,10.635054574458152
225,-8.547157302064184,5.520066033428194,10.682532496665555
226,-7.629202293379077,6.726490411096824,10.730010418872958
227,-6.542551231323792,7.78272607127134,10.77748834108036
228,-5.311448213542175,8.665434053046138,10.824966263287763
229,-3.963326563176176,9.35514439499288,10.872444185495166
230,-2.528197524867587,9.836685565999067,10.919922107702568
231,-1.0379821727657672,10.099518162588828,10.967400029909971
232,0.4741985968927946,10.137965533741475,11.014877952117374
233,1.974760196268166,9.95133628774889,11.062355874324775
234,3.430400238567018,9.543936039533362,11.109833796532177
235,4.80883762704665,8.924968217636412,11.15731171873958
236,6.079528437578162,8.10832621311435,11.204789640946982
237,7.214342719005488,7.112281563157791,11.252267563154385
238,8.18818721465281,5.959075166905067,11.299745485361788
239,8.9795602197326,4.674420678562711,11.34722340756919
240,9.571026305974744,3.286931166010713,11.394701329776593
241,9.949600432639318,1.8274818185619681,11.442179251983996
242,10.107032982297714,0.328522898013239,11.489657174191397
243,10.039989465382805,-1.1766417785463608,11.5371350963988
244,9.750120980412353,-2.6545947815835556,11.584613018606202
245,9.244023944866791,-4.0725469976060795,11.632090940813605
246,8.533090070989289,-5.399065071110166,11.679568863021007
247,7.63324999664922,-6.6047682213604775,11.72704678522841
248,6.564616339812201,-7.662978986965428,11.774524707435813
249,5.351034173782711,-8.550313485235547,11.822002629643215
250,4.019548969853929,-9.24719812655431,11.869480551850618
251,2.5998038789400377,-9.738301366187404,11.91695847405802
252,1.123379783822768,-10.012870970435854,11.964436396265421
253,-0.37690718561458864,-10.064969378553231,12.011914318472824
254,-1.8677350481463133,-9.893602009531977,12.059392240680227
255,-3.316016065879948,-9.502735743250275,12.10687016288763
256,-4.689631100042894,-8.901207245631655,12.154348085095032
257,-5.958141929451092,-8.102523253189116,12.201826007302435
258,-7.093465734325118,-7.124557329302026,12.249303929509837
259,-8.070496799561445,-5.989149899631028,12.29678185171724
260,-8.867661674195965,-4.721620516329934,12.344259773924643
261,-9.467395511107807,-3.3502032427244073,12.391737696132044
262,-9.856529069773728,-1.9054177489223343,12.439215618339446
263,-10.026577855849839,-0.4193901268576099,12.486693540546849
264,-9.973927050151651,1.0748614607111793,12.534171462754252
265,-9.69990819772929,2.544160413075772,12.581649384961654
266,-9.21076603361514,3.9559083056906066,12.629127307169057
267,-8.517516261988845,5.278808130610755,12.67660522937646
268,-7.6356975257545985,6.483558117197058,12.724083151583862
269,-6.58502315014566,7.543500751878822,12.771561073791265
270,-5.388940464917941,8.435212621600495,12.819038995998667
271,-4.074107555748569,9.13902202982038,12.866516918206068
272,-2.6697991213295205,9.639442946935947,12.913994840413471
273,-1.207254677960705,9.92551572277159,12.961472762620874
274,0.28101637636418675,9.991047065670445,13.008950684828276
275,1.7619573792869054,9.83474403451406,13.056428607035679
276,3.2026986405443196,9.460239146772102,13.103906529243082
277,4.571286989100351,8.87600612504294,13.151384451450484
278,5.837394438557827,8.095168232735505,13.198862373657887
279,6.972990253919445,7.1352035326430645,13.24634029586529
280,7.952961526793699,6.017553687302037,13.29381821807269
281,8.75566852019677,4.767145056551952,13.341296140280093
282,9.363422502316217,3.4118327882919117,13.388774062487496
283,9.762875518379227,1.9817803001275998,13.436251984694898
284,9.945313512506408,0.5087879748189214,13.483729906902301
285,9.906846363388299,-0.974413990266621,13.531207829109704
286,9.648490690880466,-2.434892854699866,13.578685751317106
287,9.176143674156522,-3.8402445674207693,13.626163673524509
288,8.500448542908881,-5.159312723904369,13.673641595731912
289,7.636554807467351,-6.3628792963854055,13.721119517939314
290,6.6037786282528685,-7.424311823853895,13.768597440146715
291,5.425170937920889,-8.320152726417449,13.816075362354118
292,4.127002971830771,-9.030637704043054,13.86355328456152
293,2.73818068890351,-9.540131763635898,13.911031206768923
294,1.2896011350926455,-9.837473255528826,13.958509128976326
295,-0.1865349190583208,-9.916218349750638,14.005987051183729
296,-1.6574387751610153,-9.774780598277289,14.053464973391131
297,-3.0904621264738776,-9.416462562524513,14.100942895598534
298,-4.45382172233198,-8.849378883731472,14.148420817805937
299,-5.717304292807443,-8.086272584322867,14.195898740013337
300,-6.852936099015804,-7.144228757293065,14.24337666222074
301,-7.835602271355248,-6.044292075577138,14.290854584428143
302,-8.643602223664042,-4.810996683814159,14.338332506635545
303,-9.259128860546712,-3.4718189736886087,14.385810428842948
304,-9.668660996013553,-2.0565654482500024,14.43328835105035
305,-9.863260336133923,-0.5967093125944316,14.480766273257753
306,-9.838766503494934,0.8753094435337959,14.528244195465156
307,-9.595885849572495,2.3268049061267138,14.575722117672559
308,-9.14017216219159,3.725571021801932,14.623200039879961
309,-8.481899776591808,5.040596191271361,14.670677962087362
310,-7.635831986884588,6.242750815875697,14.718155884294765
311,-6.620889976872941,7.305432553891156,14.765633806502168
312,-5.45972969380709,8.205154993475558,14.81311172870957
313,-4.178236126801826,8.922066715901314,14.860589650916973
314,-2.8049462782315744,9.44038927774035,14.908067573124375
315,-1.3704136910459412,9.74876444920031,14.955545495331778
316,0.09347131716177201,9.840503067518837,15.00302341753918
317,1.5541905897152775,9.713730054156615,15.050501339746583
318,2.979320476117856,9.371422453757972,15.097979261953984
319,4.337251541134568,8.821339730108631,15.145457184161387
320,5.59788966228124,8.075847946789784,15.19293510636879
321,6.733322965398577,7.151641814777961,15.240413028576192
322,7.718439817973607,6.069370853629593,15.287890950783595
323,8.531484197414517,4.8531780369138895,15.335368872990998
324,9.154536151974373,3.5301612291626414,15.3828467951984
325,9.573906744128635,2.129769427945843,15.430324717405803
326,9.780438772626857,0.6831472630416153,15.477802639613206
327,9.769706667657587,-0.7775576566879965,15.525280561820608
328,9.542111196858945,-2.219909144220404,15.572758484028009
329,9.102866958371749,-3.611902707312162,15.620236406235412
